Fig. AED1A		
293.15 K		
Constant initial guess (1.d0/mpoints/deltaenergy)		
Tol = 3.591d-4		
#Energy (kJ/mol), fun(energy) x 10-6, calculated isotherm (mmol/g)		
2.000000	11.95657	0.002632
2.738462	11.95096	0.041158
3.476923	11.94338	0.081348
4.215385	11.93313	0.117267
4.953846	11.91926	0.233643
5.692308	11.90051	0.338833
6.430769	11.87518	0.432779
7.169231	11.84096	0.509645
7.907692	11.79481	0.588121
8.646154	11.73261	0.664199
9.384615	11.64895	0.736648
10.123080	11.53667	0.807416
10.861540	11.38644	0.980264
11.600000	11.18628	1.127050
12.338460	10.92107	1.253393
13.076920	10.57237	1.497739
13.815380	10.11858	1.626986
14.553850	9.536172	1.761248
15.292310	8.802547	1.987372
16.030770	7.901423	2.201579
16.769230	6.831338	2.362953
17.507690	5.616811	2.470237
18.246150	4.319002	2.552083
18.984620	3.038749	2.620496
19.723080	1.901980	2.679424
20.461540	1.022076	2.729057
21.200000	4.513820E-01	2.776006
21.938460	1.555690E-01	2.816886
22.676920	3.949400E-02	2.856622
23.415380	6.963684E-03	2.892010
24.153850	8.111486E-04	2.925433
24.892310	6.082166E-05	2.958768
25.630770	2.994047E-06	2.989108
26.369230	1.058935E-07	3.018281
27.107690	3.231971E-09	3.046452
27.846150	1.134658E-10	3.075100
28.584620	6.708936E-12	3.101611
29.323080	1.033886E-12	3.127460
30.061540	6.350242E-13	3.153975
30.800000	2.149365E-12	3.178696
31.538460	4.546683E-11	3.202956
32.276920	5.113739E-09	3.226802
33.015380	1.831210E-06	3.250273
33.753850	8.628767E-04	3.274554
34.492310	1.589070E-01	3.297363
35.230770	2.722498	3.319893
35.969230	9.822280E-01	3.343272
36.707690	1.973741E-03	3.365297
37.446150	8.315321E-09	3.387104
38.184620	4.525261E-17	3.408711
38.923080	3.364704E-28	3.431197
39.661540	5.903250E-42	3.452436
40.400000	6.103062E-58	3.473512
41.138460	1.158922E-75	3.494438
41.876920	0.000000	3.515222
42.615380	0.000000	3.536903
43.353850	0.000000	3.557422
44.092310	0.000000	3.577824
44.830770	0.000000	3.598114
45.569230	0.000000	3.618928
46.307690	0.000000	3.639217
47.046150	0.000000	3.659431
47.784620	0.000000	3.679564
48.523080	0.000000	3.699635
49.261540	0.000000	3.719556
-----------------------------------------------------------		
Fig. AED1B		
293.15 K		
Gaussian initial guess		
Tol = 3.591d-4		
#Energy (kJ/mol), fun(energy) x 10-4, calculated isotherm (mmol/g)		
2.0000000	0.000000	0.0026233
2.7384620	0.000000	0.0409731
3.4769230	0.000000	0.0809504
4.2153850	0.000000	0.1169660
4.9538460	0.000000	0.2328103
5.6923080	0.000000	0.3373280
6.4307690	0.000000	0.4312904
7.1692310	0.000000	0.5080220
7.9076920	0.000000	0.5863653
8.6461540	0.000000	0.6624611
9.3846150	0.000000	0.7352863
10.1230800	0.000000	0.8031484
10.8615400	0.000000	0.9810936
11.6000000	5.886469	1.1249710
12.3384600	1.008218E-26	1.2526510
13.0769200	2.491958E-74	1.4993110
13.8153800	0.000000	1.6280370
14.5538500	0.000000	1.7618760
15.2923100	0.000000	1.9893550
16.0307700	0.000000	2.2044640
16.7692300	0.000000	2.3636710
17.5076900	0.000000	2.4722560
18.2461500	0.000000	2.5558320
18.9846200	0.000000	2.6234580
19.7230800	0.000000	2.6813720
20.4615400	0.000000	2.7318780
21.2000000	0.000000	2.7773630
21.9384600	0.000000	2.8187900
22.6769200	0.000000	2.8570440
23.4153800	0.000000	2.8928690
24.1538500	0.000000	2.9264890
24.8923100	0.000000	2.9583890
25.6307700	0.000000	2.9889300
26.3692300	0.000000	3.0181950
27.1076900	0.000000	3.0465990
27.8461500	0.000000	3.0740020
28.5846200	0.000000	3.1006960
29.3230800	0.000000	3.1268070
30.0615400	0.000000	3.1522880
30.8000000	0.000000	3.1772010
31.5384600	0.000000	3.2016980
32.2769200	0.000000	3.2257600
33.0153800	0.000000	3.2494160
33.7538500	0.000000	3.2728670
34.4923100	0.000000	3.2959580
35.2307700	2.951208E-02	3.3186570
35.9692300	9.288370E-03	3.3413450
36.7076900	0.000000	3.3636840
37.4461500	0.000000	3.3858420
38.1846200	0.000000	3.4077900
38.9230800	0.000000	3.4296360
39.6615400	0.000000	3.4512770
40.4000000	0.000000	3.4727620
41.1384600	0.000000	3.4940350
41.8769200	0.000000	3.5153760
42.6153800	0.000000	3.5364620
43.3538500	0.000000	3.5574430
44.0923100	0.000000	3.5783850
44.8307700	0.000000	3.5992120
45.5692300	0.000000	3.6199430
46.3076900	0.000000	3.6405680
47.0461500	0.000000	3.6611400
47.7846200	0.000000	3.6816510
48.5230800	0.000000	3.7021210
49.2615400	0.000000	3.7224620
-----------------------------------------------------------		
Fig. AED2A		
298.15 K		
Gaussian initial guess		
Tol = 3.4296d-4		
#Energy (kJ/mol), fun(energy) x 10-4, calculated isotherm (mmol/g)		
2.000000	0.000000	0.002325
2.738462	0.000000	0.038907
3.476923	0.000000	0.062720
4.215385	0.000000	0.087885
4.953846	0.000000	0.172041
5.692308	0.000000	0.251619
6.430769	0.000000	0.326168
7.169231	0.000000	0.386747
7.907692	0.000000	0.461051
8.646154	0.000000	0.516450
9.384615	0.000000	0.574261
10.123080	0.000000	0.631120
10.861540	0.000000	0.791247
11.600000	4.660897	0.921542
12.338460	1.788180E-44	1.035092
13.076920	0.000000	1.268422
13.815380	0.000000	1.387007
14.553850	0.000000	1.517070
15.292310	0.000000	1.846743
16.030770	0.000000	2.020710
16.769230	0.000000	2.177590
17.507690	0.000000	2.294743
18.246150	0.000000	2.386255
18.984620	0.000000	2.459990
19.723080	0.000000	2.521566
20.461540	0.000000	2.574803
21.200000	0.000000	2.621613
21.938460	0.000000	2.663481
22.676920	0.000000	2.701541
23.415380	0.000000	2.736560
24.153850	0.000000	2.769163
24.892310	0.000000	2.799401
25.630770	0.000000	2.828121
26.369230	0.000000	2.855111
27.107690	0.000000	2.881064
27.846150	0.000000	2.905876
28.584620	0.000000	2.929636
29.323080	0.000000	2.952586
30.061540	0.000000	2.974764
30.800000	0.000000	2.996412
31.538460	0.000000	3.017418
32.276920	0.000000	3.037928
33.015380	0.000000	3.057921
33.753850	0.000000	3.077554
34.492310	0.000000	3.096808
35.230770	3.694230E-02	3.115709
35.969230	1.721977E-03	3.134258
36.707690	0.000000	3.152553
37.446150	0.000000	3.170606
38.184620	0.000000	3.188410
38.923080	0.000000	3.205986
39.661540	0.000000	3.223376
40.400000	0.000000	3.240587
41.138460	0.000000	3.257635
41.876920	0.000000	3.274462
42.615380	0.000000	3.291177
43.353850	0.000000	3.307804
44.092310	0.000000	3.324225
44.830770	0.000000	3.340608
45.569230	0.000000	3.356793
46.307690	0.000000	3.372933
47.046150	0.000000	3.388974
47.784620	0.000000	3.404882
48.523080	0.000000	3.420697
49.261540	0.000000	3.436495
-----------------------------------------------------------		
Fig. AED2B		
313.15 K		
Gaussian initial guess		
Tol = 3.3133d-4		
#Energy (kJ/mol), fun(energy) x 10-5, calculated isotherm (mmol/g)		
2.000000	0.000000	0.001795
2.738462	0.000000	0.015607
3.476923	0.000000	0.028494
4.215385	0.000000	0.042291
4.953846	0.000000	0.083024
5.692308	0.000000	0.121890
6.430769	0.000000	0.158545
7.169231	0.000000	0.191751
7.907692	0.000000	0.226350
8.646154	0.000000	0.260654
9.384615	0.000000	0.294206
10.12308	0.000000	0.326635
10.86154	0.000000	0.420368
11.60000	0.000000	0.501218
12.33846	2.311324	0.583030
13.07692	5.431266E-58	0.739076
13.81538	0.000000	0.848033
14.55385	0.000000	0.960610
15.29231	0.000000	1.249854
16.03077	0.000000	1.430743
16.76923	0.000000	1.614559
17.50769	0.000000	1.767793
18.24615	0.000000	1.890728
18.98462	0.000000	1.988682
19.72308	0.000000	2.068594
20.46154	0.000000	2.135701
21.20000	0.000000	2.193476
21.93846	0.000000	2.243458
22.67692	0.000000	2.287693
23.41538	0.000000	2.327035
24.15385	0.000000	2.362235
24.89231	0.000000	2.393973
25.63077	0.000000	2.422775
26.36923	0.000000	2.449090
27.10769	0.000000	2.473031
27.84615	0.000000	2.495326
28.58462	0.000000	2.515719
29.32308	0.000000	2.534778
30.06154	0.000000	2.552367
30.80000	0.000000	2.568835
31.53846	0.000000	2.584254
32.27692	0.000000	2.598663
33.01538	0.000000	2.612262
33.75385	3.016213E-02	2.625016
34.49231	3.728360E-01	2.637156
35.23077	0.000000	2.648556
35.96923	0.000000	2.659432
36.70769	0.000000	2.669629
37.44615	0.000000	2.679423
38.18462	0.000000	2.688719
38.92308	0.000000	2.697608
39.66154	0.000000	2.706097
40.40000	0.000000	2.714193
41.13846	0.000000	2.721988
41.87692	0.000000	2.729437
42.61538	0.000000	2.736592
43.35385	0.000000	2.743484
44.09231	0.000000	2.750119
44.83077	0.000000	2.756498
45.56923	0.000000	2.762626
46.30769	0.000000	2.768573
47.04615	0.000000	2.774302
47.78462	0.000000	2.779858
48.52308	0.000000	2.785189
49.26154	0.000000	2.790405
-----------------------------------------------------------		
Fig. AED2C		
353.15 K		
Gaussian initial guess		
Tol = 3.1167d-4		
#Energy (kJ/mol), fun(energy) x 10-6, calculated isotherm (mmol/g)		
0.002000	0.000000	0.000650
0.771200	0.000000	0.003520
1.540400	0.000000	0.006245
2.309600	0.000000	0.008004
3.078800	0.000000	0.015940
3.848000	0.000000	0.024412
4.617200	0.000000	0.031148
5.386400	0.000000	0.038811
6.155600	0.000000	0.046475
6.924800	0.000000	0.054161
7.694000	0.000000	0.061800
8.463200	0.000000	0.069239
9.232400	0.000000	0.092015
10.001600	0.000000	0.113056
10.770800	0.000000	0.134831
11.540000	0.000000	0.177329
12.309200	0.000000	0.244939
13.078400	0.000000	0.290995
13.847600	0.000000	0.383376
14.616800	0.000000	0.480891
15.386000	0.000000	0.574031
16.155200	0.000000	0.658877
16.924400	0.000000	0.738691
17.693600	0.000000	0.812354
18.462800	0.000000	0.881289
19.232000	0.000000	0.945692
20.001200	0.000000	1.005205
20.770400	0.000000	1.060914
21.539600	0.000000	1.113313
22.308800	0.000000	1.161867
23.078000	0.000000	1.208039
23.847200	0.000000	1.251215
24.616400	6.343025E-91	1.291874
25.385600	5.410540E-81	1.330008
26.154800	1.134338E-70	1.366539
26.924000	7.825012E-60	1.401234
27.693200	1.703368E-48	1.433624
28.462400	7.206368E-37	1.465139
29.231600	2.044555E-25	1.494742
30.000800	6.975389E-15	1.522746
30.770000	2.645667E-06	1.549865
31.539200	5.951856E-01	1.575455
32.308400	2.935982	1.599976
33.077600	1.038212E-05	1.623606
33.846800	1.027423E-18	1.646202
34.616000	1.603912E-40	1.667844
35.385200	3.947738E-72	1.688559
36.154400	0.000000	1.708422
36.923600	0.000000	1.727802
37.692800	0.000000	1.746196
38.462000	0.000000	1.763865
39.231200	0.000000	1.781244
40.000400	0.000000	1.797655
40.769600	0.000000	1.813646
41.538800	0.000000	1.829036
42.308000	0.000000	1.844012
43.077200	0.000000	1.858330
43.846400	0.000000	1.872199
44.615600	0.000000	1.885756
45.384800	0.000000	1.898817
46.154000	0.000000	1.911485
46.923200	0.000000	1.923679
47.692400	0.000000	1.935569
48.461600	0.000000	1.947198
49.230800	0.000000	1.958351
-------------------------------------------------------------------------------------------		
Fig. AED3A-3B		
293.15 K		
Constant initial guess (1.d0/mpoints/deltaenergy)		
Tol = 4.6033d-4		
#P(bar), Energy (kJ/mol), fun(energy) x 10-6, calculated isotherm (mmol/g), GCMC isotherm (mmol/g)		
0.000100	20.000000	0.000000	0.014583	0.012342
0.000250	20.508470	0.000000	0.036183	0.030737
0.000500	21.016950	0.000000	0.071469	0.061008
0.000750	21.525420	0.000000	0.105893	0.089495
0.001000	22.033900	0.000000	0.139485	0.117054
0.002500	22.542370	0.000000	0.325192	0.285483
0.005000	23.050850	0.000000	0.584900	0.541352
0.009999	23.559320	0.000000	0.974867	0.953673
0.014999	24.067800	0.000000	1.255001	1.264155
0.019998	24.576270	0.000000	1.467075	1.493102
0.024996	25.084750	0.000000	1.634026	1.672954
0.029995	25.593220	0.724078	1.769504	1.817894
0.034993	26.101690	5.029298	1.882144	1.938277
0.044988	26.610170	0.000000	2.060061	2.113208
0.049986	27.118640	0.000000	2.132110	2.185041
0.054983	27.627120	0.000000	2.195887	2.244289
0.059979	28.135590	0.000000	2.252936	2.293498
0.064976	28.644070	0.000000	2.304435	2.343393
0.069972	29.152540	0.000000	2.351299	2.385470
0.074968	29.661020	0.000000	2.394252	2.424406
0.079963	30.169490	0.000000	2.433871	2.459457
0.084958	30.677970	0.000000	2.470623	2.495422
0.089953	31.186440	0.000000	2.504891	2.522194
0.094948	31.694920	0.000000	2.536989	2.555843
0.099943	32.203390	0.000000	2.567181	2.574916
0.149871	32.711860	0.000000	2.800028	2.779907
0.199770	33.220340	0.000000	2.964335	2.905783
0.249641	33.728810	0.000000	3.095125	3.021119
0.299483	34.237290	0.000000	3.205855	3.113786
0.349296	34.745760	0.000000	3.302951	3.192810
0.399081	35.254240	0.000000	3.389961	3.278363
0.448836	35.762710	1.242825	3.469067	3.360768
0.498564	36.271190	4.283075	3.541717	3.422641
0.746769	36.779660	0.000000	3.836482	3.756703
0.994259	37.288140	0.000000	4.056014	4.021423
1.487091	37.796610	0.000000	4.366867	4.387896
1.977066	38.305080	0.000000	4.578279	4.653194
2.464191	38.813560	0.000000	4.731921	4.822381
2.948470	39.322030	0.000000	4.848769	4.944622
3.429910	39.830510	0.000000	4.940676	5.067416
3.908517	40.338980	0.000000	5.014877	5.116271
4.384296	40.847460	0.000000	5.076047	5.141619
4.857253	41.355930	0.000000	5.127346	5.181810
5.327393	41.864410	0.000000	5.170985	5.252870
5.327393	42.372880	0.000000	5.170985	5.252870
5.794723	42.881360	0.000000	5.208561	5.268420
6.720971	43.389830	0.000000	5.269962	5.292122
7.636041	43.898310	0.000000	5.318008	5.327108
9.432814	44.406780	0.000000	5.388335	5.409374
13.731984	44.915250	0.000000	5.488021	5.483680
17.759447	45.423730	0.000000	5.540450	5.502785
25.013984	45.932200	0.000000	5.594289	5.549277
31.213976	46.440680	0.000000	5.621220	5.568308
36.342911	46.949150	0.000000	5.636781	5.579430
41.116597	47.457630	0.000000	5.647878	5.581217
43.492552	47.966100	0.000000	5.652518	5.585188
89.622707	48.474580	0.000000	5.694511	5.611823
193.720762	48.983050	0.000000	5.716251	5.627851
2940.308056	49.491530	0.000000	5.733968	5.728437
-------------------------------------------------------------------------------------------	
Fig. AED4		
293.15 K		
Constant initial guess (1.d0/mpoints/deltaenergy)		
Tol = 4.560d-6		
#Energy (kJ/mol), fun(energy) x 10-6, calculated isotherm (mmol/g)		
20.000000	0.000000	0.000101
20.100000	0.000000	0.865043
20.200000	0.000000	1.346275
20.300000	0.000000	1.658577
20.400000	0.000000	1.881298
20.500000	0.000000	2.050664
20.600000	0.000000	2.185596
20.700000	0.000000	2.296948
20.800000	0.000000	2.391397
20.900000	0.000000	2.473278
21.000000	0.000000	2.545532
21.100000	0.000000	2.610222
21.200000	0.000000	2.668844
21.300000	0.000000	2.722506
21.400000	0.000000	2.772048
21.500000	0.000000	2.818120
21.600000	0.000000	2.861232
21.700000	0.000000	2.901793
21.800000	0.000000	2.940129
21.900000	0.000000	2.976511
22.000000	0.000000	3.011160
22.100000	0.000000	3.044263
22.200000	0.000000	3.075974
22.300000	0.000000	3.106428
22.400000	0.000000	3.135738
22.500000	0.000000	3.164001
22.600000	0.000000	3.191304
22.700000	0.000000	3.217719
22.800000	0.000000	3.243313
22.900000	0.000000	3.268142
23.000000	0.000000	3.292259
23.100000	0.000000	3.315708
23.200000	0.000000	3.338531
23.300000	0.000000	3.360763
23.400000	0.000000	3.382440
23.500000	6.134204E-91	3.403589
23.600000	2.015763E-83	3.424239
23.700000	2.953671E-76	3.444415
23.800000	1.931910E-69	3.464140
23.900000	5.654428E-63	3.483435
24.000000	7.434463E-57	3.502318
24.100000	4.414198E-51	3.520809
24.200000	1.191428E-45	3.538923
24.300000	1.473499E-40	3.556676
24.400000	8.427881E-36	3.574082
24.500000	2.252932E-31	3.591155
24.600000	2.848094E-27	3.607908
24.700000	1.724948E-23	3.624351
24.800000	5.076443E-20	3.640496
24.900000	7.371239E-17	3.656353
25.000000	5.368137E-14	3.671932
25.100000	1.995090E-11	3.687243
25.200000	3.854232E-09	3.702293
25.300000	3.945796E-07	3.717091
25.400000	2.184330E-05	3.731645
25.500000	6.677435E-04	3.745962
25.600000	1.152020E-02	3.760049
25.700000	1.147160E-01	3.773913
25.800000	6.747330E-01	3.787560
25.900000	2.400285	3.800996
26.000000	5.290720	3.814227
26.100000	7.405879	3.827259
26.200000	6.749909	3.840097
26.300000	4.108271	3.852745
26.400000	1.712938	3.865209
26.500000	5.019927E-01	3.877494
26.600000	1.061007E-01	3.889603
26.700000	1.659615E-02	3.901542
26.800000	1.971270E-03	3.913313
26.900000	1.824180E-04	3.924922
27.000000	1.349043E-05	3.936372
27.100000	8.176481E-07	3.947667
27.200000	4.163897E-08	3.958809
27.300000	1.825883E-09	3.969804
27.400000	7.062241E-11	3.980653
27.500000	2.466889E-12	3.991361
27.600000	7.963331E-14	4.001929
27.700000	2.429488E-15	4.012362
27.800000	7.159119E-17	4.022662
27.900000	2.080997E-18	4.032832
28.000000	6.089265E-20	4.042874
28.100000	1.828975E-21	4.052792
28.200000	5.745198E-23	4.062587
28.300000	1.921240E-24	4.072263
28.400000	6.956149E-26	4.081821
28.500000	2.770719E-27	4.091263
28.600000	1.232424E-28	4.100593
28.700000	6.208006E-30	4.109812
28.800000	3.587680E-31	4.118923
28.900000	2.407400E-32	4.127927
29.000000	1.896321E-33	4.136826
29.100000	1.770968E-34	4.145623
29.200000	1.978328E-35	4.154319
29.300000	2.664256E-36	4.162917
29.400000	4.355045E-37	4.171417
29.500000	8.690574E-38	4.179822
29.600000	2.127150E-38	4.188133
29.700000	6.409967E-39	4.196352
29.800000	2.384530E-39	4.204481
29.900000	1.096968E-39	4.212521
30.000000	6.245502E-40	4.219088
30.100000	4.400022E-40	4.274922
30.200000	3.831706E-40	4.326665
30.300000	4.116540E-40	4.374770
30.400000	5.440742E-40	4.419619
30.500000	8.814476E-40	4.461543
30.600000	1.742743E-39	4.500824
30.700000	4.183402E-39	4.537712
30.800000	1.212096E-38	4.572422
30.900000	4.211293E-38	4.605146
31.000000	1.742011E-37	4.636051
31.100000	8.512807E-37	4.665288
31.200000	4.873858E-36	4.692989
31.300000	3.240589E-35	4.719274
31.400000	2.479127E-34	4.744250
31.500000	2.161175E-33	4.768013
31.600000	2.125339E-32	4.790650
31.700000	2.333475E-31	4.812241
31.800000	2.829972E-30	4.832856
31.900000	3.749985E-29	4.852560
32.000000	5.369409E-28	4.871414
32.100000	8.214667E-27	4.889471
32.200000	1.327674E-25	4.906781
32.300000	2.241178E-24	4.923390
32.400000	3.906436E-23	4.939340
32.500000	6.951061E-22	4.954669
32.600000	1.248420E-20	4.969413
32.700000	2.237826E-19	4.983605
32.800000	3.959370E-18	4.997276
32.900000	6.839333E-17	5.010453
33.000000	1.141130E-15	5.023164
33.100000	1.819874E-14	5.035433
33.200000	2.746029E-13	5.047282
33.300000	3.881782E-12	5.058733
33.400000	5.091794E-11	5.069805
33.500000	6.140909E-10	5.080517
33.600000	6.749845E-09	5.090886
33.700000	6.705175E-08	5.100929
33.800000	5.972071E-07	5.110661
33.900000	4.733457E-06	5.120096
34.000000	3.315236E-05	5.129247
34.100000	2.038390E-04	5.138127
34.200000	1.093624E-03	5.146748
34.300000	5.091539E-03	5.155122
34.400000	2.046673E-02	5.163258
34.500000	7.071527E-02	5.171166
34.600000	2.091804E-01	5.178857
34.700000	5.279375E-01	5.186339
34.800000	1.133552	5.193620
34.900000	2.065737	5.200709
35.000000	3.189271	5.207612
35.100000	4.166099	5.214338
35.200000	4.601035	5.220892
35.300000	4.294959	5.227282
35.400000	3.389608	5.233513
35.500000	2.263346	5.239592
35.600000	1.280254	5.245523
35.700000	6.144975E-01	5.251313
35.800000	2.508154E-01	5.256966
35.900000	8.728036E-02	5.262486
36.000000	2.597201E-02	5.267880
36.100000	6.631177E-03	5.273150
36.200000	1.458150E-03	5.278301
36.300000	2.772833E-04	5.283338
36.400000	4.580151E-05	5.288263
36.500000	6.602781E-06	5.293081
36.600000	8.349158E-07	5.297795
36.700000	9.309246E-08	5.302408
36.800000	9.202989E-09	5.306924
36.900000	8.112596E-10	5.311345
37.000000	6.414426E-11	5.315675
37.100000	4.576550E-12	5.319916
37.200000	2.964629E-13	5.324071
37.300000	1.754552E-14	5.328143
37.400000	9.547039E-16	5.332134
37.500000	4.806646E-17	5.336047
37.600000	2.253515E-18	5.339883
37.700000	9.901422E-20	5.343645
37.800000	4.103146E-21	5.347336
37.900000	1.613848E-22	5.350956
38.000000	6.062473E-24	5.354509
38.100000	2.188547E-25	5.357996
38.200000	7.638578E-27	5.361418
38.300000	2.592975E-28	5.364778
38.400000	8.610561E-30	5.368078
38.500000	2.812956E-31	5.371318
38.600000	9.090148E-33	5.374501
38.700000	2.921161E-34	5.377628
38.800000	9.382825E-36	5.380700
38.900000	3.027158E-37	5.383719
39.000000	9.855959E-39	5.386687
39.100000	3.252900E-40	5.389604
39.200000	1.092949E-41	5.392472
39.300000	3.753510E-43	5.395292
39.400000	1.322624E-44	5.398065
39.500000	4.798978E-46	5.400793
39.600000	1.798980E-47	5.403476
39.700000	6.989102E-49	5.406116
39.800000	2.822190E-50	5.408714
39.900000	1.187613E-51	5.411270
40.000000	5.220896E-53	5.414101
40.100000	2.403023E-54	5.492992
40.200000	1.160333E-55	5.540366
40.300000	5.888390E-57	5.571967
40.400000	3.145501E-58	5.594548
40.500000	1.771195E-59	5.611489
40.600000	1.052563E-60	5.624668
